frame_start	frame_end	highbinding	left_cerebral_white_matter	left_cerebellum_white_matter	left_cerebellum_cortex	left_thalamus	left_caudate	left_putamen	left_pallidum	brain_stem	left_hippocampus	left_amygdala	csf	left_accumbens_area	left_ventraldc	left_choroid_plexus	right_cerebral_white_matter	right_cerebellum_white_matter	right_cerebellum_cortex	right_thalamus	right_caudate	right_putamen	right_pallidum	right_hippocampus	right_amygdala	right_accumbens_area	right_ventraldc	right_choroid_plexus	aircavity	skull	vermis	pons	csf_extracerebral	head_extracerebral	ctx_lh_bankssts	ctx_lh_caudalanteriorcingulate	ctx_lh_caudalmiddlefrontal	ctx_lh_cuneus	ctx_lh_entorhinal	ctx_lh_fusiform	ctx_lh_inferiorparietal	ctx_lh_inferiortemporal	ctx_lh_isthmuscingulate	ctx_lh_lateraloccipital	ctx_lh_lateralorbitofrontal	ctx_lh_lingual	ctx_lh_medialorbitofrontal	ctx_lh_middletemporal	ctx_lh_parahippocampal	ctx_lh_paracentral	ctx_lh_parsopercularis	ctx_lh_parsorbitalis	ctx_lh_parstriangularis	ctx_lh_pericalcarine	ctx_lh_postcentral	ctx_lh_posteriorcingulate	ctx_lh_precentral	ctx_lh_precuneus	ctx_lh_rostralanteriorcingulate	ctx_lh_rostralmiddlefrontal	ctx_lh_superiorfrontal	ctx_lh_superiorparietal	ctx_lh_superiortemporal	ctx_lh_supramarginal	ctx_lh_frontalpole	ctx_lh_temporalpole	ctx_lh_transversetemporal	ctx_lh_insula	ctx_rh_bankssts	ctx_rh_caudalanteriorcingulate	ctx_rh_caudalmiddlefrontal	ctx_rh_cuneus	ctx_rh_entorhinal	ctx_rh_fusiform	ctx_rh_inferiorparietal	ctx_rh_inferiortemporal	ctx_rh_isthmuscingulate	ctx_rh_lateraloccipital	ctx_rh_lateralorbitofrontal	ctx_rh_lingual	ctx_rh_medialorbitofrontal	ctx_rh_middletemporal	ctx_rh_parahippocampal	ctx_rh_paracentral	ctx_rh_parsopercularis	ctx_rh_parsorbitalis	ctx_rh_parstriangularis	ctx_rh_pericalcarine	ctx_rh_postcentral	ctx_rh_posteriorcingulate	ctx_rh_precentral	ctx_rh_precuneus	ctx_rh_rostralanteriorcingulate	ctx_rh_rostralmiddlefrontal	ctx_rh_superiorfrontal	ctx_rh_superiorparietal	ctx_rh_superiortemporal	ctx_rh_supramarginal	ctx_rh_frontalpole	ctx_rh_temporalpole	ctx_rh_transversetemporal	ctx_rh_insula	reference
0	10	-0.002160930307582	0	0	0	0	0	0	0	0	0	0	0	0	0	0	0	0	0	0	0	0	0	0	0	0	0	0	0	0.3407022953033447	0	0	4.571002500597388e-05	0.03638026490807533	0	0	0	0	0	0	0	0	0	0	0	0	0	0	0	0	0	0	0	0	0	0	0	0	0	0	0	0	0	0	0	0	0	0	0	0	0	0	0	0	0.119750551879406	0	0	0	0	0	0	0	0	0	0	0	0	0	0	0	0	0	0	0	0	0	0	0	0	0	0	0	0.07181369420141
10	20	-0.001420038519427	0	0	0	0	0	0	0	0	0	0	0	0	0	0	0	0	0	0	0	0	0	0	0	0	0	0	0	0.03425322845578194	0	0	0.01772474683821201	0.04699161276221275	0	0	0	0	0	0	0	0	0	0	0	0	0	0	0	0	0	0	0	0	0	0	0	0	0	0	0	0	0	0	0	0	0	0	0	0	0	0	0	0	0	0	0	0	0	0	0	0	0	0	0	0	0	0	0	0	0	0	0	0	0.003750203642994165	0	0	0	0	0	0	0	-0.004791905405
20	30	-0.116117529571056	0.01312209852039814	0	0.6527645587921143	0	0	0	0	2.90847635269165	0	0	0	0	0	0	0.02971502579748631	0	0.06349331885576248	0	0	0	0	0	0	0	0	0	0.6511168479919434	8.866020202636719	0	0	2.756638288497925	20.34395599365234	0	0	0.04485177621245384	0	0	0	0.01289661973714828	0	0	0	0	0	0.01625670492649078	0	0	0	0	0	0	0	0.050833810120821	0	0.006532428786158562	0	0.05563468113541603	0.2198978066444397	0.3868629932403564	0.006101450882852077	0	0.006418283563107252	0.5851061940193176	0	0	0	0	0	0.0247089546173811	0	0	0	0.009387784637510777	0	0	0	0	0	0.005956059787422419	0	0	0.4299339056015015	0	0.07183080166578293	0	0	7.27314327377826e-05	0	0.05206269770860672	0	0	0.2008730471134186	0.3735941350460052	0.04628396034240723	0	0.002272602170705795	0.437056839466095	0	0	0	0.626470059156418
30	40	91.87142944335938	78.86166381835938	352.3494567871094	353.3199157714844	12.23507881164551	37.80037689208984	70.03323364257812	39.27222442626953	283.9699096679688	135.4948272705078	134.2405242919922	20.78771209716797	201.9720916748047	99.19390869140625	944.0665893554688	100.5165252685547	412.528564453125	604.9442749023438	14.03085708618164	35.48121643066406	260.4533081054688	3.568707227706909	5.082367420196533	15.2653636932373	29.52962303161621	34.91924285888672	61.47357559204102	247.3528137207031	171.2857818603516	345.3110961914062	110.6497116088867	202.9353332519531	326.5125427246094	55.59469223022461	5.431068897247314	50.91648483276367	83.48574829101562	361.6293029785156	262.3357238769531	173.8281097412109	159.2256774902344	24.50699424743652	249.8729095458984	257.5605773925781	117.1939849853516	300.6780700683594	51.33585739135742	40.85857772827148	137.6227874755859	19.59334564208984	112.2946472167969	105.7141952514648	36.32316589355469	76.34075927734375	4.366118431091309	119.8120269775391	123.3985290527344	670.108642578125	136.8628997802734	234.9281158447266	173.0843353271484	186.7520904541016	82.80194854736328	248.5196990966797	48.16748046875	168.9153747558594	58.60496139526367	79.60921478271484	10.75937271118164	203.3163146972656	141.2282867431641	21.31077766418457	256.4824523925781	55.58631896972656	288.7197875976562	26.67979049682617	196.3266143798828	214.1141967773438	147.0279083251953	169.9448852539062	131.4785461425781	91.26047515869141	90.05931854248047	403.8145446777344	243.3273620605469	318.8421630859375	153.7768402099609	100.9739151000977	0.946062445640564	169.1688690185547	11.0512580871582	169.0477905273438	134.6691436767578	245.7466430664062	80.47731781005859	181.7804260253906	55.89936447143555	166.5227508544922	160.5368804931641	193.8389434814453	293.6207580566406	540.7826995849609
40	50	435.8705139160156	639.9404296875	1102.118286132812	1667.105712890625	309.6768188476562	301.3976135253906	558.0086669921875	315.3990478515625	1018.575073242188	972.3714599609375	509.9087219238281	383.0464477539062	846.783935546875	723.4725952148438	51.99182510375977	843.7944946289062	858.6005859375	1791.17236328125	604.7630615234375	180.7510375976562	614.3121337890625	797.5811157226562	1192.401611328125	1957.95361328125	868.7540893554688	612.0820922851562	398.7096862792969	623.6151123046875	569.086181640625	1212.025268554688	722.283447265625	1187.085571289062	739.9834594726562	1478.532592773438	578.8513793945312	1179.375	1563.510498046875	612.3953247070312	929.4767456054688	1005.694396972656	1046.503051757812	1054.423217773438	1314.255981445312	1507.420532226562	1423.9111328125	1321.36572265625	1326.102416992188	1443.187622070312	1167.309814453125	352.0106506347656	1294.760131835938	342.9522094726562	931.3955078125	1105.819702148438	1020.215637207031	1047.197265625	773.303466796875	456.0158081054688	1319.28271484375	1430.993774414062	1189.729614257812	702.42236328125	785.189453125	893.5159912109375	1330.649536132812	1381.03076171875	1109.169555664062	1247.946166992188	929.035888671875	1586.444580078125	1203.6796875	644.568359375	1354.4423828125	1227.44384765625	784.0206909179688	523.3993530273438	1108.242919921875	1088.16064453125	1246.708618164062	1058.442749023438	1151.4052734375	1737.9423828125	1551.7939453125	1758.14208984375	683.4696044921875	1574.494873046875	551.514892578125	1133.787109375	1058.735717773438	1281.6337890625	857.8084716796875	637.5281982421875	1399.835693359375	1571.469482421875	1384.867919921875	1065.897827148438	1034.051635742188	960.3904418945312	1189.435302734375	467.0229187011719	1425.75	1872.063415527344
50	60	1529.162353515625	1291.020385742188	1980.680541992188	2417.83984375	1218.31640625	626.5912475585938	1982.397094726562	684.6116333007812	1822.091064453125	1543.120727539062	1322.915771484375	802.3831176757812	1235.433349609375	1179.317749023438	1044.757690429688	1312.710571289062	1919.576293945312	2437.29150390625	1186.57421875	785.5517578125	1779.480712890625	1061.720581054688	1075.052124023438	1641.007202148438	409.5410461425781	1185.829467773438	744.229736328125	885.60693359375	789.4677734375	2235.852294921875	1339.880981445312	1606.1572265625	916.3161010742188	2041.27099609375	1042.101684570312	2120.855712890625	1993.697509765625	1576.535278320312	2007.802001953125	1981.833129882812	1880.404296875	1784.097290039062	2014.867065429688	1806.296752929688	2166.660400390625	1554.863159179688	1597.981689453125	2851.7744140625	2439.64306640625	2210.23681640625	1779.7626953125	3008.52197265625	1908.57861328125	1693.93994140625	1554.295776367188	2078.6015625	1925.277587890625	1539.503662109375	2420.28173828125	2269.916748046875	1723.350463867188	1626.497314453125	1917.588134765625	1106.253051757812	1712.105712890625	2015.402465820312	1918.099975585938	1145.361572265625	1236.573364257812	2312.99755859375	1580.296142578125	1245.559326171875	1726.667602539062	2038.1396484375	1768.39697265625	1614.56396484375	1905.61279296875	2365.36474609375	2128.899169921875	2131.205810546875	2009.63623046875	2051.125	1605.81787109375	2505.7060546875	2180.15771484375	1576.016235351562	2303.63818359375	1841.433349609375	2256.935302734375	1911.592895507812	1630.2099609375	1727.494018554688	2379	2094.48095703125	1684.743530273438	2327.989501953125	2220.272705078125	2186.353271484375	1557.578002929688	4510.30908203125	1721.470947265625	2723.312622070312
60	80	4279.06201171875	2255.1259765625	2606.28271484375	3721.4384765625	3310.1455078125	2910.626220703125	4195.57666015625	3223.88232421875	2247.0654296875	1860.430053710938	1109.782958984375	1700.942138671875	1807.072021484375	2506.717529296875	2558.612548828125	2246.5361328125	2592.72412109375	3539.36376953125	2916.7333984375	2867.328369140625	3640.178466796875	2343.35400390625	2145.52880859375	2498.469970703125	1719.6630859375	3275.876953125	2186.93115234375	1153.380126953125	1076.490112304688	3480.937255859375	2592.940185546875	2542.802978515625	1194.613647460938	4155.42431640625	5340.01416015625	3355.5341796875	3199.390869140625	1655.24951171875	2277.455810546875	3414.591552734375	2549.337158203125	3313.39306640625	2928.86572265625	3161.1318359375	3005.421142578125	3492.7109375	2726.2734375	3148.339599609375	2982.4462890625	4121.21142578125	4063.5205078125	2790.052490234375	3532.255859375	3227.549560546875	3384.640625	3554.473388671875	3371.79052734375	3860.355712890625	4171.77783203125	4051.171875	2847.185546875	2708.5634765625	3524.01708984375	2752.850830078125	1746.73681640625	3080.842529296875	3806.56884765625	2805.3115234375	4220.94677734375	3525.98095703125	3296.25537109375	2912.75634765625	2743.013427734375	3499.4638671875	2828.2685546875	2264.31396484375	2964.85205078125	3953.062255859375	2692.7578125	3411.873291015625	2958.670166015625	2482.15478515625	2980.41552734375	4635.5576171875	3866.449951171875	4205.162109375	4219.05322265625	3736.3076171875	3761.135498046875	3755.61376953125	3854.552001953125	2516.3837890625	3864.58154296875	3938.816162109375	3081.521484375	2839.974853515625	4001.114013671875	3317.037109375	2281.3271484375	6365.6982421875	3093.4765625	4118.329223632812
80	100	5684.87744140625	2909.364990234375	3148.814453125	4619.50830078125	3784.0439453125	4043.0791015625	5142.77783203125	4494.5283203125	3063.080322265625	4220.4755859375	4400.8232421875	2133.144775390625	2894.132568359375	3096.47998046875	2883.648193359375	2955.523681640625	3763.52490234375	4439.14892578125	4195.76220703125	3533.3076171875	5452.47119140625	3650.50634765625	3690.892822265625	4411.6455078125	3097.30224609375	3543.893798828125	2160.896240234375	1151.957397460938	1298.961791992188	5226.69970703125	3223.45556640625	3073.730712890625	1353.954956054688	3644.822021484375	6467.84375	4589.64111328125	3985.375244140625	2937.541748046875	3342.445068359375	4221.4140625	3994.3017578125	3799.145263671875	3629.217529296875	4893.18505859375	3994.42626953125	4488.32421875	4107.81298828125	2840.905029296875	4090.616455078125	5379.1162109375	4825.1201171875	5410.0546875	4928.18212890625	4466.353515625	4980.9990234375	4982.34521484375	5307.68603515625	4510.42724609375	4949.5380859375	5398.06982421875	3580.6240234375	3820.041015625	4598.7734375	3661.18359375	2294.481689453125	4927.26025390625	4428.73876953125	3532.97021484375	5354.95703125	4898.22705078125	4296.3173828125	3529.3984375	3387.686767578125	4478.5380859375	4014.185302734375	3560.570556640625	4080.658935546875	5140.740234375	4593.1884765625	4852.529296875	4163.13818359375	3427.825439453125	3625.578369140625	5661.51416015625	5686.80712890625	5264.5576171875	5779.39013671875	4330.6923828125	5398.18359375	5297.61669921875	5341.3212890625	5363.705078125	4768.51513671875	4650.31494140625	4054.60400390625	4076.704833984375	4608.40380859375	4462.181640625	2957.044921875	4466.5029296875	4534.80615234375	5143.2978515625
100	120	6688.69580078125	3406.394287109375	4012.515869140625	5595.99560546875	4288.595703125	4917.03173828125	5916.9150390625	5030.99365234375	3914.38818359375	3389.706298828125	2981.740234375	2449.919921875	3110.2236328125	4251.7861328125	2932.8466796875	3350.244873046875	3737.3134765625	5215.27294921875	5138.94482421875	4195.96875	6957.4111328125	4049.154052734375	3473.946044921875	3614.62451171875	5046.8427734375	4392.08544921875	3835.73291015625	1305.270263671875	1440.721069335938	5392.3173828125	4110.93505859375	3544.765625	1437.331420898438	5816.24267578125	5742.86376953125	5972.63037109375	4949.52587890625	3202.78173828125	4138.41552734375	5483.9052734375	4273.34228515625	5618.48876953125	4406.57373046875	6025.35693359375	4666.86279296875	5435.76171875	4452.88037109375	3723.450927734375	4524.7734375	5791.7177734375	5435.6708984375	5275.21875	6764.517578125	4743.8359375	5795.72021484375	4898.16748046875	4972.50146484375	4113.88671875	5943.5595703125	5918.01513671875	4685.48291015625	4542.87158203125	5028.27880859375	4824.80810546875	3173.751708984375	7477.29931640625	5318.57177734375	5290.18017578125	5050.6103515625	6120.30419921875	4374.54736328125	4701.25830078125	3966.917236328125	5679.2275390625	4526.4287109375	4185.00732421875	4705.7578125	6142.408203125	4348.53662109375	5501.92822265625	4750.20703125	5123.48486328125	5356.302734375	7802.2578125	4758.83837890625	6085.189453125	6696.275390625	5009.58349609375	5330.28515625	6080.025390625	5442.00390625	5740.05322265625	6199.642578125	6364.0556640625	4930.2744140625	5220.77197265625	5767.06494140625	5904.4892578125	2745.80517578125	7172.89697265625	5753.7685546875	6196.93701171875
120	150	9344.3662109375	4347.15234375	4691.79736328125	6513.88623046875	6909.65869140625	5497.896484375	8713.14453125	5289.361328125	4779.60498046875	6183.8330078125	4422.65625	3171.6005859375	8919.595703125	5469.298828125	3406.5439453125	4303.275390625	5133.767578125	6469.98193359375	7169.33984375	6710.90576171875	8129.56591796875	5027.49072265625	5020.060546875	3814.1103515625	5030.21826171875	4558.25	3920.292724609375	1587.088134765625	1676.778564453125	6581.919921875	4574.984375	4251.8203125	1669.232421875	6458.06787109375	6598.373046875	6957.08154296875	5880.9814453125	4356.64306640625	4929.0439453125	6565.36669921875	5895.0947265625	6183.90673828125	6135.55517578125	7330.3232421875	6351.30517578125	6467.6181640625	6289.765625	5803.82861328125	6322.87939453125	7799.78173828125	7569.52685546875	6968.30908203125	7687.4794921875	5707.7490234375	7271.43798828125	7053.50390625	7292.6875	6979.763671875	7237.9677734375	7394.5283203125	5660.1083984375	5872.39697265625	6520.392578125	5721.14892578125	3475.075439453125	8260.3916015625	6355.17822265625	6530.8076171875	8601.943359375	6832.35986328125	6812.7177734375	4102.2626953125	5534.236328125	6927.89208984375	5625.8046875	6573.9638671875	5583.26025390625	7100.05712890625	6405.77294921875	6753.17138671875	6252.90087890625	5830.9990234375	6091.70751953125	8692.251953125	7459.39501953125	7932.57568359375	7706.71142578125	6262.39990234375	7154.451171875	8001.6064453125	7694.00634765625	6442.33056640625	7371.013671875	7565.02734375	5927.4287109375	5955.23291015625	6986.87060546875	7363.60498046875	4161.01416015625	9695.0419921875	6982.7958984375	7372.3388671875
150	180	10393.326171875	5129.70166015625	5891.892578125	7949.6962890625	7836.83203125	6497.35205078125	9287.5615234375	6529.98974609375	5058.15869140625	5888.86962890625	5732.73486328125	3763.89599609375	8551.6494140625	5558.8203125	7896.646484375	5174.671875	6400.63525390625	7527.0029296875	7220.13916015625	7261.6875	9334.2373046875	6468.5283203125	5741.32568359375	4859.103515625	5823.40234375	5722.30078125	4527.29345703125	1782.313842773438	1935.876953125	7557.46337890625	6644.3623046875	5008.138671875	1818.895751953125	7504.94482421875	9013.7822265625	8743.73046875	8084.3818359375	4884.1142578125	6330.3349609375	7778.6689453125	7158.0712890625	8081.88232421875	7121.2216796875	8762.0458984375	7137.92333984375	8232.34765625	7137.75439453125	5454.4892578125	6862.08447265625	9352.3095703125	8052.86181640625	9028.4140625	9704.7021484375	6981.19677734375	9353.2314453125	8581	8454.8994140625	7921.9189453125	9544.6416015625	8660.427734375	7005.77880859375	6473.6806640625	8550.24609375	7902.37353515625	4332.83349609375	10801.2490234375	7318.8759765625	7727.052734375	8318.51171875	9025.478515625	7448.81884765625	4936.81201171875	6437.0224609375	7746.90771484375	6694.3759765625	8338.3046875	6834.224609375	9178.7021484375	7557.751953125	8470.60546875	7877.33056640625	6149.38134765625	8881.1689453125	10321.94921875	8093.8662109375	8966.7041015625	8337.53515625	8303.4453125	10217.935546875	8901.74609375	9259.833984375	9378.384765625	9152.443359375	8806.8359375	7359.43310546875	6807.49853515625	8448.8349609375	7342.32470703125	5021.23388671875	11747.73828125	7846.56103515625	8757.458984375
180	210	13383.2587890625	5919.345703125	7485.72705078125	9140.6181640625	8815.708984375	9619.1123046875	10754.3974609375	6681.5078125	6831.763671875	7372.427734375	7047.5546875	4258.2119140625	12514.080078125	6639.65283203125	8192.01953125	6003.18505859375	7037.58935546875	8593.9130859375	9960.052734375	9761.931640625	11365.5400390625	7733.763671875	7868.79833984375	6037.5146484375	6249.6572265625	7132.60498046875	6098.06494140625	2037.234497070312	2117.053466796875	7659.50927734375	7163.04296875	5666.54443359375	2024.3134765625	7731.44580078125	10972.798828125	9840.9794921875	9043.6787109375	5064.513671875	7613.70703125	9453.8232421875	8387.8388671875	10676.0615234375	8138.21826171875	10332.6484375	8395.552734375	8984.20703125	8499.44140625	7671.208984375	9646.005859375	10547.427734375	8862.5146484375	9252.58984375	11311.0380859375	8777.8564453125	11670.70703125	10038.3515625	9784.8828125	9940.62890625	11033.1279296875	10512.3017578125	7937.521484375	8038.48583984375	9357.0400390625	9404.2109375	5634.21826171875	9490.6708984375	8932.1083984375	9608.8828125	9846.865234375	9238.09765625	9770.2470703125	7244.53564453125	6923.58056640625	9447.1982421875	7964.5556640625	10707.5517578125	8007.49072265625	11170.3037109375	8906.95703125	9286.8994140625	8710.09375	6648.4443359375	9340.603515625	12290.3818359375	9434.4736328125	11659.6630859375	11142.5673828125	9160.0048828125	11456.98828125	10759.45703125	10843.521484375	7742.57763671875	10533.3232421875	10467.6796875	7506.2265625	7967.494140625	9937.6474609375	9039.09375	5544.8056640625	13569.7470703125	9685.966796875	10005.4951171875
210	240	15738.0126953125	6683.77734375	7725.7177734375	9879.4921875	10689.759765625	10471.2783203125	14136.6865234375	8274.23046875	6315.31640625	8424.3515625	6715.34423828125	4792.328125	8518.7001953125	8438.86328125	4628.90869140625	6697.1728515625	7227.37646484375	9305.279296875	10799.412109375	11506.0419921875	13175.9794921875	7404.4306640625	8827.98046875	6846.91162109375	11614.7392578125	8466.48046875	6459.5576171875	2036.468872070312	2278.14794921875	9760.740234375	7621.67041015625	6341.5693359375	2200.427490234375	11195.314453125	14547.2470703125	11416.6611328125	10677.71484375	6773.33544921875	8579.4287109375	10642.767578125	9131.1611328125	11242.13671875	9821.3408203125	11774.3212890625	9695.33984375	10380.4580078125	10049.4453125	6764.06396484375	10060.35546875	12271.8515625	12264.095703125	11746.5048828125	11991.248046875	9746.32421875	13356.8330078125	11529.201171875	11308.6552734375	10669.603515625	11458.65234375	11449.2890625	8588.9208984375	8994.0576171875	10828.283203125	10408.9677734375	6625.37158203125	11364.8212890625	10461.060546875	10881.40625	11284.779296875	10771.0615234375	10688.4443359375	7828.603515625	8009.50146484375	10743.8603515625	9576.640625	10947.294921875	9017.931640625	11705.4140625	9826.27734375	11285.498046875	10040.3798828125	9286.7763671875	11295.1064453125	13043	11432.2177734375	13353.3984375	11967.9248046875	10757.21484375	13908.49609375	11609.44921875	11806.193359375	10971.6171875	11219.203125	12050.9296875	8729.837890625	8987.09375	10872.5908203125	9877.8798828125	5889.01953125	14665.25	11162.572265625	10909.42138671875
240	270	18567.517578125	7467.9931640625	8442.3837890625	10776.0654296875	12652.0693359375	12081.0244140625	17813.912109375	8828.443359375	7613.39208984375	9792.0283203125	8538.8486328125	5530.326171875	8924.5732421875	8448.7373046875	8025.6044921875	7631.18896484375	8411.2333984375	10513.896484375	12598.8349609375	13181.6806640625	14941.228515625	9302.0859375	9599.3974609375	5687.36279296875	11672.478515625	8514.4599609375	7197.29443359375	2271.820556640625	2470.908203125	10060.5537109375	8431.8935546875	6969.69384765625	2358.754638671875	11937.908203125	14095.25	13775.603515625	10827.9091796875	7986.78076171875	8939.9833984375	11649.0498046875	9924.736328125	13538.35546875	10610.1484375	13179.3369140625	11512.412109375	11639.47265625	11038.9775390625	7729.1015625	12732.783203125	14591.408203125	12588.9150390625	12735.3408203125	12361.7861328125	11046.775390625	14025.1826171875	12921.123046875	13025.4599609375	12556.8671875	13684.892578125	12919.6953125	10602.8623046875	10340.703125	12607.4794921875	9807.271484375	7985.35595703125	12806.26171875	12085.8408203125	11828.34375	14369.5166015625	13143.0537109375	12231.8212890625	8359.111328125	9597.171875	11671.037109375	9729.4453125	13213.3662109375	10278.8974609375	13559.240234375	10589.0009765625	12861.03125	10933.62109375	8253.2255859375	12808.828125	14627.4931640625	11745.7880859375	14277.7041015625	13378.71875	11690.0048828125	13665.8427734375	12987.57421875	13346.7119140625	12785.6865234375	13445.3466796875	13497.716796875	10281.8046875	10843.509765625	12268.041015625	13693.517578125	6730.466796875	14652.4033203125	12059.83203125	12075.5703125
270	300	19790.521484375	8307.9951171875	9157.2626953125	11759.134765625	13675.802734375	13469.9970703125	16960.232421875	9641.8369140625	8577.099609375	9722.90234375	9316.8505859375	6479.375	12885.5576171875	10235.3330078125	8999.80078125	8424.150390625	9388.64453125	11390.8203125	14272.5087890625	14650.5244140625	17530.98828125	11603.4677734375	9542.451171875	9905.728515625	12214.7783203125	10161.48046875	10542.439453125	2427.756103515625	2730.60791015625	10394.5478515625	9326.87890625	7697.029296875	2540.916015625	11838.3720703125	14860.3779296875	14287.6181640625	13534.7626953125	7500.173828125	9920.0556640625	13323.6025390625	11648.587890625	14856.525390625	11427.3671875	13884.24609375	11950.51953125	12727.9501953125	11774.5439453125	8822.8759765625	13706.3779296875	14961.3984375	12459.11328125	15261.1728515625	15547.0263671875	12069.97265625	18026.892578125	15073.4794921875	14758.6279296875	14457.9052734375	15208.6484375	14759.7060546875	11427.55859375	11483.0205078125	13870.5673828125	10831.5615234375	7751.01416015625	14027.2470703125	13460.36328125	12070.6337890625	16194.81640625	14174.9658203125	12117.189453125	8220.3115234375	9687.71484375	13383.7783203125	11103.103515625	14124.025390625	11176.26953125	14539.974609375	11344.357421875	13379.0322265625	12104.326171875	9849.73046875	12718.7783203125	15534.138671875	13741.291015625	15749.6298828125	15094.8046875	12655.25	15706.17578125	14663.7080078125	14169.685546875	15618.2138671875	14551.0654296875	13822.7470703125	11137.6728515625	12062.89453125	14157.107421875	12597.24609375	8973.7548828125	14717.587890625	12760.3623046875	13193.97021484375
300	360	22911.28125	9493.5654296875	10759.744140625	13676.3310546875	15205.869140625	15571.025390625	20113.783203125	12151.8369140625	10385.3525390625	13116.1171875	10103.619140625	6566.1044921875	16722.455078125	11671.7626953125	6498.0966796875	9423.8349609375	10901.263671875	13261.755859375	16286.755859375	16317.880859375	19884.6875	12390.33203125	11676.1328125	8420.6328125	15170.951171875	11391.6328125	10239.4580078125	2751.08544921875	3013.695556640625	13034.5556640625	11583.6103515625	8869.3486328125	2916.579833984375	15185.44921875	18438.4140625	16218.4375	15025.087890625	9499.865234375	12109.4248046875	15173.9326171875	13225.9521484375	16970.876953125	13105.89453125	16675.013671875	14376.7939453125	15889.2138671875	13892.91015625	11872.00390625	15421.322265625	17301.091796875	15553.6630859375	17695.984375	18392.03515625	13610.1748046875	19517.900390625	16406.6015625	17048.59765625	15891.587890625	17478.11328125	16705.794921875	13268.2998046875	13334.244140625	16161.9072265625	14034.3662109375	9271.16796875	15904.96484375	15466.9248046875	15156.4248046875	17864.55859375	16208.9921875	15040.48828125	8782.1591796875	12243.7451171875	15388.83203125	12535.7314453125	15991.953125	13454.3017578125	16654.46875	14339.4853515625	16200.5869140625	14143.310546875	10232.1396484375	16871.966796875	19297.97265625	16606.337890625	17692.892578125	17882.806640625	14749.5107421875	18902.111328125	16710.685546875	17315.787109375	16484.076171875	16712.4375	16445.92578125	13078.3056640625	13325.32421875	15849.8291015625	15780.56640625	9403.6455078125	19603.849609375	15763.6865234375	15207.28662109375
360	420	26747.26953125	10903.328125	12236.0107421875	15353.66796875	18032.177734375	18473.193359375	23504.01953125	15735.7001953125	11815.09765625	13335.2734375	11286.087890625	7298.8232421875	16702.9140625	13307.4150390625	14292.09765625	10864.77734375	12391.1923828125	14785.927734375	18489.13671875	19591.14453125	22998.669921875	13949.3203125	13858.853515625	11241.0537109375	19407.3515625	14099.892578125	12307.55859375	3066.299072265625	3453.64990234375	14377.7509765625	13450.2041015625	9941.771484375	3222.323974609375	17499.947265625	21669.6171875	19245.62890625	17349.84765625	10311.26953125	13927.201171875	17303.505859375	15161.80859375	19004.408203125	15670.1796875	19551.919921875	15791.4130859375	16430.40234375	16543.884765625	12856.4462890625	18238.78125	21130.853515625	18495.478515625	19748.3203125	20145.625	15974.8544921875	20355.404296875	19024.0703125	19262.6328125	19756.857421875	19859.51953125	19325.59765625	15231.6796875	15324.5576171875	18461.720703125	14453.083984375	10099.9013671875	20746.3828125	17052.46484375	17436.953125	19416.228515625	18388.083984375	17767.931640625	11226.3876953125	14115.466796875	17413.810546875	15056.708984375	18618.458984375	14888.796875	19725.89453125	16250.1044921875	18374.11328125	16079.8349609375	13191.8515625	18955.015625	22224.486328125	18726.16796875	18929.736328125	20618.216796875	16466.8984375	20821.419921875	19267.185546875	19341.61328125	16940.548828125	19521.126953125	19417.166015625	14828.7880859375	15854.5908203125	18489.41015625	18010.857421875	10534.0751953125	20892.349609375	17858.0703125	17061.1845703125
420	480	30868.619140625	12334.376953125	13833.4990234375	17173.560546875	20805.16015625	22101.40234375	26330.3515625	17490.375	13049.1884765625	15331.9931640625	13997.9619140625	8823.7880859375	20872.17578125	15758.3935546875	11877.6953125	12125.15625	13496.4111328125	16494.47265625	20851.98828125	22100.443359375	25882.73828125	16280.6005859375	17028.28515625	13983.505859375	22978.26171875	16005.6376953125	15801.646484375	3381.71337890625	3736.109130859375	14685.234375	15661.0771484375	11146.1279296875	3599.629638671875	20358.927734375	24795.48046875	21676.05859375	19114.763671875	12719.8310546875	15696.41015625	20007.52734375	17131.953125	20830.5625	17412.255859375	22165.923828125	18180.33203125	19670.072265625	19034.154296875	14576.1259765625	18353.953125	22858.169921875	20445.830078125	22787.931640625	22297.029296875	18040.7265625	23386.107421875	21177.548828125	21631.599609375	20628.53515625	22133.251953125	21453.513671875	17045.310546875	17013.484375	20392.017578125	18573.810546875	12550.70703125	23917.345703125	19984.28125	19335.669921875	23200.693359375	20639.16796875	19286.8984375	12319.5283203125	16012.3740234375	19782.1796875	17507.28515625	20831.099609375	17277.06640625	21322.767578125	17912.6015625	21681.439453125	18124.5	15031.9560546875	21553.54296875	24397.298828125	21665.91015625	22795.67578125	23886.568359375	19228.5078125	26596.314453125	22161.416015625	23051.23828125	19734.70703125	22335.041015625	21414.41015625	17293.400390625	17376.3828125	20125.021484375	21122.544921875	12630.306640625	26153.158203125	19965.123046875	18973.091796875
480	540	34748.0390625	13651.3974609375	15224.666015625	18692.283203125	21963.01171875	24802.51171875	30613.275390625	17508.216796875	15380.2685546875	17009.39453125	15425.65625	9056.65234375	24946.984375	18656.748046875	15406.0908203125	13536.1884765625	15894.7607421875	18316.193359375	23418.220703125	24647.978515625	28368.83203125	19742.2109375	18279.958984375	13256.1787109375	24860.296875	16534.666015625	12217.7080078125	3765.463623046875	4117.2861328125	18701.9140625	16276.1474609375	12225.0751953125	3936.45654296875	21522.6015625	26956.67578125	23716.431640625	21871.208984375	14241.9560546875	17366.56640625	21665.07421875	18739.4609375	22347.0703125	20280.09375	25414.94921875	20848.4140625	22281.029296875	20429.8046875	15470.310546875	23026.283203125	25357.099609375	22659.33203125	25518.681640625	25725.919921875	20578.79296875	27468.765625	23451.046875	23916.02734375	22919.185546875	24816.232421875	23815.15625	18760.517578125	19452.2734375	22174.185546875	20936.19921875	14376.0400390625	25423.642578125	23079.466796875	23524.865234375	25356.005859375	22856.95703125	20914.623046875	14819.4033203125	17792.52734375	21788.244140625	19084.384765625	24027.4765625	19324.62890625	23350.34765625	21090.087890625	23186.66015625	20353.40625	17297.978515625	23462.759765625	27316.470703125	23225.88671875	25420.16796875	25968.02734375	21548.0234375	27533.013671875	23242.2265625	24922.23828125	24527.8515625	23876.9609375	23838.3984375	19000.880859375	19232.37109375	22428.4140625	21372.83984375	15983.7314453125	28639.076171875	22576.142578125	20914.724609375
